[Name]
Series 1 at eksen

[Data]
X [ m ],Pressure [ Pa ]
0.00000000e+00, 3.16581100e+06
1.20240478e-02, 3.16568500e+06
2.40480956e-02, 3.16547100e+06
3.60721424e-02, 3.16517050e+06
4.80961911e-02, 3.16477825e+06
6.01202399e-02, 3.16430850e+06
7.21442848e-02, 3.16376900e+06
8.41683298e-02, 3.16317025e+06
9.61923748e-02, 3.16252600e+06
1.08216420e-01, 3.16184675e+06
1.20240465e-01, 3.16114225e+06
1.32264510e-01, 3.16042000e+06
1.44288555e-01, 3.15968775e+06
1.56312600e-01, 3.15895100e+06
1.68336645e-01, 3.15821300e+06
1.80360690e-01, 3.15747775e+06
1.92384735e-01, 3.15674825e+06
2.04408780e-01, 3.15602700e+06
2.16432825e-01, 3.15531500e+06
2.28456870e-01, 3.15461325e+06
2.40480915e-01, 3.15392225e+06
2.52504975e-01, 3.15324300e+06
2.64529020e-01, 3.15257525e+06
2.76553065e-01, 3.15191800e+06
2.88577110e-01, 3.15127225e+06
3.00601155e-01, 3.15063725e+06
3.12625200e-01, 3.15001375e+06
3.24649245e-01, 3.14939950e+06
3.36673290e-01, 3.14879625e+06
3.48697335e-01, 3.14820125e+06
3.60721380e-01, 3.14761650e+06
3.72745425e-01, 3.14704000e+06
3.84769469e-01, 3.14647150e+06
3.96793514e-01, 3.14591125e+06
4.08817559e-01, 3.14535850e+06
4.20841604e-01, 3.14481250e+06
4.32865649e-01, 3.14427350e+06
4.44889694e-01, 3.14374050e+06
4.56913739e-01, 3.14321400e+06
4.68937784e-01, 3.14269225e+06
4.80961829e-01, 3.14217575e+06
4.92985874e-01, 3.14166400e+06
5.05009949e-01, 3.14115700e+06
5.17033994e-01, 3.14065375e+06
5.29058039e-01, 3.14015325e+06
5.41082084e-01, 3.13965625e+06
5.53106129e-01, 3.13916100e+06
5.65130174e-01, 3.13866750e+06
5.77154219e-01, 3.13817375e+06
5.89178264e-01, 3.13767875e+06
6.01202309e-01, 3.13718250e+06
6.13226354e-01, 3.13668125e+06
6.25250399e-01, 3.13617400e+06
6.37274444e-01, 3.13565625e+06
6.49298489e-01, 3.13512400e+06
6.61322534e-01, 3.13457200e+06
6.73346579e-01, 3.13399300e+06
6.85370624e-01, 3.13337650e+06
6.97394669e-01, 3.13271000e+06
7.09418714e-01, 3.13197700e+06
7.21442759e-01, 3.13115675e+06
7.33466804e-01, 3.13021500e+06
7.45490849e-01, 3.12911675e+06
7.57514894e-01, 3.12781450e+06
7.69538939e-01, 3.12623050e+06
7.81562984e-01, 3.12427600e+06
7.93587029e-01, 3.12183500e+06
8.05611074e-01, 3.11873850e+06
8.17635119e-01, 3.11473675e+06
8.29659164e-01, 3.10956450e+06
8.41683209e-01, 3.10281400e+06
8.53707254e-01, 3.09374425e+06
8.65731299e-01, 3.08164550e+06
8.77755344e-01, 3.06536925e+06
8.89779389e-01, 3.04279850e+06
9.01803434e-01, 3.01169975e+06
9.13827479e-01, 2.96825300e+06
9.25851524e-01, 2.90580325e+06
9.37875569e-01, 2.81703550e+06
9.49899614e-01, 2.68887350e+06
9.61923659e-01, 2.50466125e+06
9.73947704e-01, 2.24916725e+06
9.85971749e-01, 1.90407125e+06
9.97995794e-01, 1.47781450e+06
1.01001990e+00, 9.96979063e+05
1.02204394e+00, 5.12011250e+05
1.03406799e+00, 7.25377656e+04
1.04609203e+00, -2.83952875e+05
1.05811608e+00, -5.54798750e+05
1.07014012e+00, -7.47165625e+05
1.08216417e+00, -8.77528063e+05
1.09418821e+00, -9.64567500e+05
1.10621226e+00, -1.02007306e+06
1.11823630e+00, -1.05492100e+06
1.13026035e+00, -1.07574563e+06
1.14228439e+00, -1.08628125e+06
1.15430844e+00, -1.08991863e+06
1.16633248e+00, -1.08798738e+06
1.17835653e+00, -1.08160775e+06
1.19038057e+00, -1.07153763e+06
1.20240462e+00, -1.05826400e+06
1.21442866e+00, -1.04212344e+06
1.22645271e+00, -1.02332888e+06
1.23847675e+00, -1.00223194e+06
1.25050080e+00, -9.79094250e+05
1.26252484e+00, -9.54041063e+05
1.27454889e+00, -9.27397563e+05
1.28657293e+00, -8.99391375e+05
1.29859698e+00, -8.70197375e+05
1.31062102e+00, -8.40047688e+05
1.32264507e+00, -8.09170250e+05
1.33466911e+00, -7.77757625e+05
1.34669316e+00, -7.45868625e+05
1.35871720e+00, -7.13741188e+05
1.37074125e+00, -6.81553875e+05
1.38276529e+00, -6.49426500e+05
1.39478934e+00, -6.17421250e+05
1.40681338e+00, -5.85610438e+05
1.41883743e+00, -5.54090875e+05
1.43086147e+00, -5.22996438e+05
1.44288552e+00, -4.92386000e+05
1.45490956e+00, -4.62293938e+05
1.46693361e+00, -4.32618469e+05
1.47895765e+00, -4.03515313e+05
1.49098170e+00, -3.74901563e+05
1.50300574e+00, -3.46966063e+05
1.51502979e+00, -3.19548188e+05
1.52705383e+00, -2.92797594e+05
1.53907788e+00, -2.66632531e+05
1.55110192e+00, -2.41261797e+05
1.56312597e+00, -2.16625906e+05
1.57515001e+00, -1.92911266e+05
1.58717406e+00, -1.70217750e+05
1.59919810e+00, -1.48591047e+05
1.61122215e+00, -1.28079289e+05
1.62324619e+00, -1.08757195e+05
1.63527024e+00, -9.04184844e+04
1.64729428e+00, -7.31354063e+04
1.65931833e+00, -5.69812188e+04
1.67134237e+00, -4.18754531e+04
1.68336642e+00, -2.77336328e+04
1.69539046e+00, -1.44490264e+04
1.70741451e+00, -2.01408911e+03
1.71943855e+00, 9.52870313e+03
1.73146260e+00, 2.04221914e+04
1.74348664e+00, 3.05220918e+04
1.75551069e+00, 3.99262695e+04
1.76753473e+00, 4.86990039e+04
1.77955878e+00, 5.68814453e+04
1.79158282e+00, 6.44133594e+04
1.80360687e+00, 7.13977656e+04
1.81563091e+00, 7.78545781e+04
1.82765496e+00, 8.37716328e+04
1.83967900e+00, 8.92091172e+04
1.85170305e+00, 9.41976563e+04
1.86372709e+00, 9.87599219e+04
1.87575114e+00, 1.02868484e+05
1.88777518e+00, 1.06643508e+05
1.89979923e+00, 1.10047383e+05
1.91182327e+00, 1.13127313e+05
1.92384732e+00, 1.15876586e+05
1.93587136e+00, 1.18360219e+05
1.94789541e+00, 1.20571922e+05
1.95991945e+00, 1.22520609e+05
1.97194350e+00, 1.24267320e+05
1.98396754e+00, 1.25804930e+05
1.99599159e+00, 1.27148148e+05
2.00801563e+00, 1.28329023e+05
2.02003980e+00, 1.29338766e+05
2.03206396e+00, 1.30214469e+05
2.04408813e+00, 1.30952438e+05
2.05611229e+00, 1.31583500e+05
2.06813645e+00, 1.32098266e+05
2.08016062e+00, 1.32514844e+05
2.09218478e+00, 1.32842938e+05
2.10420895e+00, 1.33095656e+05
2.11623311e+00, 1.33266109e+05
2.12825727e+00, 1.33374828e+05
2.14028144e+00, 1.33428531e+05
2.15230560e+00, 1.33427234e+05
2.16432977e+00, 1.33370281e+05
2.17635393e+00, 1.33269906e+05
2.18837810e+00, 1.33125906e+05
2.20040226e+00, 1.32945531e+05
2.21242642e+00, 1.32731797e+05
2.22445059e+00, 1.32484719e+05
2.23647475e+00, 1.32210531e+05
2.24849892e+00, 1.31910859e+05
2.26052308e+00, 1.31587594e+05
2.27254725e+00, 1.31243719e+05
2.28457141e+00, 1.30878680e+05
2.29659557e+00, 1.30498438e+05
2.30861974e+00, 1.30100836e+05
2.32064390e+00, 1.29687922e+05
2.33266807e+00, 1.29262828e+05
2.34469223e+00, 1.28825156e+05
2.35671639e+00, 1.28376461e+05
2.36874056e+00, 1.27918164e+05
2.38076472e+00, 1.27450945e+05
2.39278889e+00, 1.26975344e+05
2.40481305e+00, 1.26492383e+05
2.41683722e+00, 1.26002758e+05
2.42886138e+00, 1.25506891e+05
2.44088554e+00, 1.25005453e+05
2.45290971e+00, 1.24499336e+05
2.46493387e+00, 1.23988625e+05
2.47695804e+00, 1.23473250e+05
2.48898220e+00, 1.22954055e+05
2.50100636e+00, 1.22431711e+05
2.51303053e+00, 1.21906164e+05
2.52505469e+00, 1.21378719e+05
2.53707886e+00, 1.20848922e+05
2.54910302e+00, 1.20316969e+05
2.56112719e+00, 1.19783453e+05
2.57315135e+00, 1.19248242e+05
2.58517551e+00, 1.18711617e+05
2.59719968e+00, 1.18174148e+05
2.60922384e+00, 1.17635883e+05
2.62124801e+00, 1.17096914e+05
2.63327217e+00, 1.16557531e+05
2.64529634e+00, 1.16017797e+05
2.65732050e+00, 1.15477219e+05
2.66934466e+00, 1.14936813e+05
2.68136883e+00, 1.14396734e+05
2.69339299e+00, 1.13857391e+05
2.70541716e+00, 1.13317789e+05
2.71744132e+00, 1.12778070e+05
2.72946548e+00, 1.12238977e+05
2.74148965e+00, 1.11700672e+05
2.75351381e+00, 1.11163086e+05
2.76553798e+00, 1.10626117e+05
2.77756214e+00, 1.10090523e+05
2.78958631e+00, 1.09555625e+05
2.80161047e+00, 1.09021656e+05
2.81363463e+00, 1.08488977e+05
2.82565880e+00, 1.07957484e+05
2.83768296e+00, 1.07426938e+05
2.84970713e+00, 1.06898164e+05
2.86173129e+00, 1.06370484e+05
2.87375546e+00, 1.05843922e+05
2.88577962e+00, 1.05318906e+05
2.89780378e+00, 1.04795359e+05
2.90982795e+00, 1.04273453e+05
2.92185211e+00, 1.03752813e+05
2.93387628e+00, 1.03233508e+05
2.94590044e+00, 1.02715922e+05
2.95792460e+00, 1.02199602e+05
2.96994877e+00, 1.01684773e+05
2.98197293e+00, 1.01171344e+05
2.99399710e+00, 1.00659594e+05
3.00602126e+00, 1.00149375e+05
3.01804543e+00, 9.96406953e+04
3.03006959e+00, 9.91337969e+04
3.04209375e+00, 9.86283906e+04
3.05411792e+00, 9.81243281e+04
3.06614208e+00, 9.76218125e+04
3.07816625e+00, 9.71211719e+04
3.09019041e+00, 9.66216484e+04
3.10221457e+00, 9.61235625e+04
3.11423874e+00, 9.56272266e+04
3.12626290e+00, 9.51327031e+04
3.13828707e+00, 9.46399297e+04
3.15031123e+00, 9.41483203e+04
3.16233540e+00, 9.36584766e+04
3.17435956e+00, 9.31698125e+04
3.18638372e+00, 9.26829141e+04
3.19840789e+00, 9.21975156e+04
3.21043205e+00, 9.17133281e+04
3.22245622e+00, 9.12307344e+04
3.23448038e+00, 9.07496094e+04
3.24650455e+00, 9.02699844e+04
3.25852871e+00, 8.97919453e+04
3.27055287e+00, 8.93151094e+04
3.28257704e+00, 8.88395000e+04
3.29460120e+00, 8.83654844e+04
3.30662537e+00, 8.78928359e+04
3.31864953e+00, 8.74211484e+04
3.33067369e+00, 8.69512500e+04
3.34269786e+00, 8.64820313e+04
3.35472202e+00, 8.60149844e+04
3.36674619e+00, 8.55486797e+04
3.37877035e+00, 8.50837500e+04
3.39079452e+00, 8.46197344e+04
3.40281868e+00, 8.41568750e+04
3.41484284e+00, 8.36952031e+04
3.42686701e+00, 8.32349453e+04
3.43889117e+00, 8.27760078e+04
3.45091534e+00, 8.23180469e+04
3.46293950e+00, 8.18609766e+04
3.47496367e+00, 8.14052734e+04
3.48698783e+00, 8.09509297e+04
3.49901199e+00, 8.04977578e+04
3.51103616e+00, 8.00454844e+04
3.52306032e+00, 7.95943984e+04
3.53508449e+00, 7.91441484e+04
3.54710865e+00, 7.86951641e+04
3.55913281e+00, 7.82474141e+04
3.57115698e+00, 7.78006953e+04
3.58318114e+00, 7.73547656e+04
3.59520531e+00, 7.69099453e+04
3.60722947e+00, 7.64661797e+04
3.61925364e+00, 7.60235313e+04
3.63127780e+00, 7.55816563e+04
3.64330196e+00, 7.51410391e+04
3.65532613e+00, 7.47012578e+04
3.66735029e+00, 7.42620000e+04
3.67937446e+00, 7.38238203e+04
3.69139862e+00, 7.33864844e+04
3.70342278e+00, 7.29501875e+04
3.71544695e+00, 7.25148594e+04
3.72747111e+00, 7.20806484e+04
3.73949528e+00, 7.16474453e+04
3.75151944e+00, 7.12149531e+04
3.76354361e+00, 7.07835234e+04
3.77556777e+00, 7.03533750e+04
3.78759193e+00, 6.99242188e+04
3.79961610e+00, 6.94959688e+04
3.81164026e+00, 6.90686797e+04
3.82366443e+00, 6.86424688e+04
3.83568859e+00, 6.82170000e+04
3.84771276e+00, 6.77926953e+04
3.85973692e+00, 6.73694297e+04
3.87176108e+00, 6.69468281e+04
3.88378525e+00, 6.65247500e+04
3.89580941e+00, 6.61035703e+04
3.90783358e+00, 6.56831328e+04
3.91985774e+00, 6.52636797e+04
3.93188190e+00, 6.48445039e+04
3.94390607e+00, 6.44270859e+04
3.95593023e+00, 6.40095234e+04
3.96795440e+00, 6.35927695e+04
3.97997856e+00, 6.31770352e+04
3.99200273e+00, 6.27617578e+04
4.00402689e+00, 6.23468906e+04
4.01605082e+00, 6.19326484e+04
4.02807474e+00, 6.15194648e+04
4.04009867e+00, 6.11070820e+04
4.05212259e+00, 6.06953711e+04
4.06414652e+00, 6.02842344e+04
4.07617044e+00, 5.98731172e+04
4.08819437e+00, 5.94638281e+04
4.10021830e+00, 5.90546641e+04
4.11224222e+00, 5.86465352e+04
4.12426615e+00, 5.82386328e+04
4.13629007e+00, 5.78318047e+04
4.14831400e+00, 5.74256328e+04
4.16033792e+00, 5.70201094e+04
4.17236185e+00, 5.66146875e+04
4.18438578e+00, 5.62108008e+04
4.19640970e+00, 5.58069297e+04
4.20843363e+00, 5.54038984e+04
4.22045755e+00, 5.50014492e+04
4.23248148e+00, 5.45994297e+04
4.24450541e+00, 5.41981602e+04
4.25652933e+00, 5.37977344e+04
4.26855326e+00, 5.33979453e+04
4.28057718e+00, 5.29984883e+04
4.29260111e+00, 5.25998359e+04
4.30462503e+00, 5.22018711e+04
4.31664896e+00, 5.18045898e+04
4.32867289e+00, 5.14079609e+04
4.34069681e+00, 5.10120352e+04
4.35272074e+00, 5.06163203e+04
4.36474466e+00, 5.02211406e+04
4.37676859e+00, 4.98263281e+04
4.38879251e+00, 4.94323789e+04
4.40081644e+00, 4.90392109e+04
4.41284037e+00, 4.86463242e+04
4.42486429e+00, 4.82537617e+04
4.43688822e+00, 4.78619180e+04
4.44891214e+00, 4.74706250e+04
4.46093607e+00, 4.70798516e+04
4.47296000e+00, 4.66895742e+04
4.48498392e+00, 4.62997578e+04
4.49700785e+00, 4.59105117e+04
4.50903177e+00, 4.55217617e+04
4.52105570e+00, 4.51330117e+04
4.53307962e+00, 4.47449453e+04
4.54510355e+00, 4.43575078e+04
4.55712748e+00, 4.39703789e+04
4.56915140e+00, 4.35834727e+04
4.58117533e+00, 4.31972109e+04
4.59319925e+00, 4.28116836e+04
4.60522318e+00, 4.24262813e+04
4.61724710e+00, 4.20417422e+04
4.62927103e+00, 4.16579414e+04
4.64129496e+00, 4.12741094e+04
4.65331888e+00, 4.08908203e+04
4.66534281e+00, 4.05082422e+04
4.67736673e+00, 4.01261719e+04
4.68939066e+00, 3.97445352e+04
4.70141459e+00, 3.93632773e+04
4.71343851e+00, 3.89824922e+04
4.72546244e+00, 3.86020508e+04
4.73748636e+00, 3.82218164e+04
4.74951029e+00, 3.78418242e+04
4.76153421e+00, 3.74625625e+04
4.77355814e+00, 3.70831758e+04
4.78558207e+00, 3.67040469e+04
4.79760599e+00, 3.63254219e+04
4.80962992e+00, 3.59472578e+04
4.82165384e+00, 3.55697539e+04
4.83367777e+00, 3.51924453e+04
4.84570169e+00, 3.48153633e+04
4.85772562e+00, 3.44390234e+04
4.86974955e+00, 3.40628008e+04
4.88177347e+00, 3.36868320e+04
4.89379740e+00, 3.33110664e+04
4.90582132e+00, 3.29356719e+04
4.91784525e+00, 3.25609160e+04
4.92986917e+00, 3.21865605e+04
4.94189310e+00, 3.18127227e+04
4.95391703e+00, 3.14392988e+04
4.96594095e+00, 3.10660430e+04
4.97796488e+00, 3.06930293e+04
4.98998880e+00, 3.03206602e+04
5.00201273e+00, 2.99489316e+04
5.01403666e+00, 2.95776953e+04
5.02606058e+00, 2.92065879e+04
5.03808451e+00, 2.88357383e+04
5.05010843e+00, 2.84649063e+04
5.06213236e+00, 2.80955371e+04
5.07415628e+00, 2.77257148e+04
5.08618021e+00, 2.73561660e+04
5.09820414e+00, 2.69872500e+04
5.11022806e+00, 2.66185996e+04
5.12225199e+00, 2.62505039e+04
5.13427591e+00, 2.58825449e+04
5.14629984e+00, 2.55146855e+04
5.15832376e+00, 2.51471621e+04
5.17034769e+00, 2.47800703e+04
5.18237162e+00, 2.44134805e+04
5.19439554e+00, 2.40472637e+04
5.20641947e+00, 2.36809648e+04
5.21844339e+00, 2.33150195e+04
5.23046732e+00, 2.29497207e+04
5.24249125e+00, 2.25849648e+04
5.25451517e+00, 2.22196641e+04
5.26653910e+00, 2.18555156e+04
5.27856302e+00, 2.14912559e+04
5.29058695e+00, 2.11273867e+04
5.30261087e+00, 2.07636465e+04
5.31463480e+00, 2.03999375e+04
5.32665873e+00, 2.00365449e+04
5.33868265e+00, 1.96737559e+04
5.35070658e+00, 1.93108750e+04
5.36273050e+00, 1.89482520e+04
5.37475443e+00, 1.85862344e+04
5.38677835e+00, 1.82240430e+04
5.39880228e+00, 1.78629297e+04
5.41082621e+00, 1.75014629e+04
5.42285013e+00, 1.71404668e+04
5.43487406e+00, 1.67799707e+04
5.44689798e+00, 1.64194961e+04
5.45892191e+00, 1.60590449e+04
5.47094584e+00, 1.56988760e+04
5.48296976e+00, 1.53389238e+04
5.49499369e+00, 1.49792236e+04
5.50701761e+00, 1.46198828e+04
5.51904154e+00, 1.42607578e+04
5.53106546e+00, 1.39014580e+04
5.54308939e+00, 1.35422559e+04
5.55511332e+00, 1.31834668e+04
5.56713724e+00, 1.28250225e+04
5.57916117e+00, 1.24663623e+04
5.59118509e+00, 1.21086533e+04
5.60320902e+00, 1.17508154e+04
5.61523294e+00, 1.13930996e+04
5.62725687e+00, 1.10357734e+04
5.63928080e+00, 1.06787314e+04
5.65130472e+00, 1.03217852e+04
5.66332865e+00, 9.96483398e+03
5.67535257e+00, 9.60794922e+03
5.68737650e+00, 9.25044824e+03
5.69940042e+00, 8.89392773e+03
5.71142435e+00, 8.53689844e+03
5.72344828e+00, 8.18005176e+03
5.73547220e+00, 7.82328369e+03
5.74749613e+00, 7.46659863e+03
5.75952005e+00, 7.10995752e+03
5.77154398e+00, 6.75340527e+03
5.78356791e+00, 6.39697949e+03
5.79559183e+00, 6.04065332e+03
5.80761576e+00, 5.68446338e+03
5.81963968e+00, 5.32840137e+03
5.83166361e+00, 4.97244531e+03
5.84368753e+00, 4.61656201e+03
5.85571146e+00, 4.26076025e+03
5.86773539e+00, 3.90523022e+03
5.87975931e+00, 3.54955859e+03
5.89178324e+00, 3.19367090e+03
5.90380716e+00, 2.83793506e+03
5.91583109e+00, 2.48224927e+03
5.92785501e+00, 2.12677441e+03
5.93987894e+00, 1.77152039e+03
5.95190287e+00, 1.41742053e+03
5.96392679e+00, 1.06199890e+03
5.97595072e+00, 7.06695313e+02
5.98797464e+00, 3.53603638e+02
5.99999857e+00, 4.57496376e+01


